s,A(s) (GHz),B(s) (GHz),C (normalized)
0.00000000E+00,9.87512500E+00,2.24006100E-01,0.00000000E+00
1.00100100E-03,9.78051300E+00,2.26160200E-01,5.42153100E-03
2.00200200E-03,9.68849400E+00,2.28324500E-01,1.06228100E-02
3.00300300E-03,9.59647500E+00,2.30499200E-01,1.58241000E-02
4.00400400E-03,9.50459300E+00,2.32684100E-01,2.10140300E-02
5.00500500E-03,9.41718000E+00,2.34879400E-01,2.58351500E-02
6.00600600E-03,9.32980500E+00,2.37084900E-01,3.06530000E-02
7.00700700E-03,9.24243100E+00,2.39300800E-01,3.54708600E-02
8.00800800E-03,9.15671200E+00,2.41527000E-01,4.01562100E-02
9.00900900E-03,9.07356100E+00,2.43763500E-01,4.46356300E-02
1.00100100E-02,8.99041000E+00,2.46010300E-01,4.91150600E-02
1.10110100E-02,8.90725900E+00,2.48267400E-01,5.35944800E-02
1.20120100E-02,8.82625700E+00,2.50534800E-01,5.79068300E-02
1.30130100E-02,8.74747300E+00,2.52812500E-01,6.20464700E-02
1.40140100E-02,8.66868900E+00,2.55100500E-01,6.61861200E-02
1.50150200E-02,8.58990400E+00,2.57398900E-01,7.03257600E-02
1.60160200E-02,8.51233900E+00,2.59707500E-01,7.43738900E-02
1.70170200E-02,8.43807700E+00,2.62026500E-01,7.81730300E-02
1.80180200E-02,8.36381500E+00,2.64355700E-01,8.19721800E-02
1.90190200E-02,8.28955400E+00,2.66695300E-01,8.57713200E-02
2.00200200E-02,8.21529200E+00,2.69045100E-01,8.95704700E-02
2.10210200E-02,8.14408900E+00,2.71405300E-01,9.31477000E-02
2.20220200E-02,8.07444000E+00,2.73775800E-01,9.66119900E-02
2.30230200E-02,8.00479100E+00,2.76156600E-01,1.00076300E-01
2.40240200E-02,7.93514200E+00,2.78547700E-01,1.03540600E-01
2.50250300E-02,7.86558900E+00,2.80949100E-01,1.06998200E-01
2.60260300E-02,7.79862900E+00,2.83360800E-01,1.10274700E-01
2.70270300E-02,7.73328700E+00,2.85782800E-01,1.13437700E-01
2.80280300E-02,7.66794500E+00,2.88215100E-01,1.16600700E-01
2.90290300E-02,7.60260200E+00,2.90657800E-01,1.19763800E-01
3.00300300E-02,7.53726000E+00,2.93110700E-01,1.22926800E-01
3.10310300E-02,7.47319500E+00,2.95574000E-01,1.26003800E-01
3.20320300E-02,7.41134900E+00,2.98047500E-01,1.28931400E-01
3.30330300E-02,7.35053200E+00,3.00531400E-01,1.31789600E-01
3.40340300E-02,7.28971500E+00,3.03025500E-01,1.34647900E-01
3.50350400E-02,7.22889800E+00,3.05530000E-01,1.37506100E-01
3.60360400E-02,7.16808100E+00,3.08044800E-01,1.40364300E-01
3.70370400E-02,7.10890900E+00,3.10569900E-01,1.43116500E-01
3.80380400E-02,7.05116000E+00,3.13105300E-01,1.45776800E-01
3.90390400E-02,6.99490400E+00,3.15651000E-01,1.48340900E-01
4.00400400E-02,6.93864700E+00,3.18207000E-01,1.50905100E-01
4.10410400E-02,6.88239100E+00,3.20773300E-01,1.53469200E-01
4.20420400E-02,6.82613500E+00,3.23349900E-01,1.56033400E-01
4.30430400E-02,6.76987900E+00,3.25936900E-01,1.58597500E-01
4.40440400E-02,6.71565200E+00,3.28534100E-01,1.61036400E-01
4.50450500E-02,6.66215400E+00,3.31141600E-01,1.63430100E-01
4.60460500E-02,6.61016100E+00,3.33759500E-01,1.65730900E-01
4.70470500E-02,6.55816900E+00,3.36387600E-01,1.68031700E-01
4.80480500E-02,6.50617600E+00,3.39026100E-01,1.70332500E-01
4.90490500E-02,6.45418300E+00,3.41674900E-01,1.72633300E-01
5.00500500E-02,6.40219100E+00,3.44334000E-01,1.74934100E-01
5.10510500E-02,6.35170200E+00,3.47003400E-01,1.77146300E-01
5.20520500E-02,6.30213100E+00,3.49683000E-01,1.79304300E-01
5.30530500E-02,6.25374100E+00,3.52373000E-01,1.81393100E-01
5.40540500E-02,6.20650100E+00,3.55073400E-01,1.83414500E-01
5.50550600E-02,6.15926100E+00,3.57784000E-01,1.85435800E-01
5.60560600E-02,6.11202200E+00,3.60504900E-01,1.87457200E-01
5.70570600E-02,6.06478200E+00,3.63236100E-01,1.89478600E-01
5.80580600E-02,6.01754200E+00,3.65977700E-01,1.91499900E-01
5.90590600E-02,5.97076600E+00,3.68729500E-01,1.93495400E-01
6.00600600E-02,5.92561100E+00,3.71491700E-01,1.95400100E-01
6.10610600E-02,5.88045700E+00,3.74264100E-01,1.97304900E-01
6.20620600E-02,5.83656900E+00,3.77046900E-01,1.99139000E-01
6.30630600E-02,5.79351400E+00,3.79839900E-01,2.00926900E-01
6.40640600E-02,5.75045900E+00,3.82643300E-01,2.02714700E-01
6.50650700E-02,5.70740300E+00,3.85457000E-01,2.04502500E-01
6.60660700E-02,5.66434800E+00,3.88281000E-01,2.06290400E-01
6.70670700E-02,5.62129200E+00,3.91115300E-01,2.08078200E-01
6.80680700E-02,5.57823700E+00,3.93959900E-01,2.09866000E-01
6.90690700E-02,5.53682100E+00,3.96814800E-01,2.11566600E-01
7.00700700E-02,5.49593500E+00,3.99680000E-01,2.13239000E-01
7.10710700E-02,5.45504800E+00,4.02555600E-01,2.14911400E-01
7.20720700E-02,5.41530300E+00,4.05441400E-01,2.16523700E-01
7.30730700E-02,5.37667600E+00,4.08337500E-01,2.18077300E-01
7.40740700E-02,5.33804900E+00,4.11244000E-01,2.19630900E-01
7.50750800E-02,5.29942100E+00,4.14160700E-01,2.21184500E-01
7.60760800E-02,5.26079400E+00,4.17087800E-01,2.22738100E-01
7.70770800E-02,5.22216700E+00,4.20025200E-01,2.24291700E-01
7.80780800E-02,5.18353900E+00,4.22972900E-01,2.25845300E-01
7.90790800E-02,5.14491200E+00,4.25930800E-01,2.27398900E-01
8.00800800E-02,5.10836700E+00,4.28899100E-01,2.28848300E-01
8.10810800E-02,5.07198500E+00,4.31877700E-01,2.30289500E-01
8.20820800E-02,5.03560300E+00,4.34866600E-01,2.31730800E-01
8.30830800E-02,4.99922000E+00,4.37865900E-01,2.33172000E-01
8.40840800E-02,4.96443100E+00,4.40875400E-01,2.34534100E-01
8.50850900E-02,4.93001400E+00,4.43895200E-01,2.35877800E-01
8.60860900E-02,4.89559600E+00,4.46925300E-01,2.37221500E-01
8.70870900E-02,4.86117800E+00,4.49965800E-01,2.38565200E-01
8.80880900E-02,4.82676000E+00,4.53016500E-01,2.39908900E-01
8.90890900E-02,4.79234200E+00,4.56077600E-01,2.41252600E-01
9.00900900E-02,4.75792400E+00,4.59148900E-01,2.42596300E-01
9.10910900E-02,4.72350600E+00,4.62230600E-01,2.43940000E-01
9.20920900E-02,4.68975400E+00,4.65322600E-01,2.45252400E-01
9.30930900E-02,4.65732300E+00,4.68424900E-01,2.46502500E-01
9.40940900E-02,4.62489300E+00,4.71537500E-01,2.47752700E-01
9.50951000E-02,4.59246200E+00,4.74660400E-01,2.49002800E-01
9.60961000E-02,4.56003200E+00,4.77793600E-01,2.50252900E-01
9.70971000E-02,4.52839300E+00,4.80937100E-01,2.51466200E-01
9.80981000E-02,4.49808700E+00,4.84090900E-01,2.52617400E-01
9.90991000E-02,4.46778000E+00,4.87255000E-01,2.53768600E-01
1.00100100E-01,4.43747400E+00,4.90429400E-01,2.54919900E-01
1.01101100E-01,4.40716800E+00,4.93614200E-01,2.56071100E-01
1.02102100E-01,4.37686100E+00,4.96809200E-01,2.57222300E-01
1.03103100E-01,4.34655500E+00,5.00014600E-01,2.58373600E-01
1.04104100E-01,4.31624800E+00,5.03230200E-01,2.59524800E-01
1.05105100E-01,4.28594200E+00,5.06456200E-01,2.60676000E-01
1.06106100E-01,4.25563500E+00,5.09692500E-01,2.61827300E-01
1.07107100E-01,4.22685100E+00,5.12939100E-01,2.62911400E-01
1.08108100E-01,4.19853300E+00,5.16196000E-01,2.63974900E-01
1.09109100E-01,4.17021500E+00,5.19463200E-01,2.65038500E-01
1.10110100E-01,4.14189700E+00,5.22740700E-01,2.66102000E-01
1.11111100E-01,4.11357800E+00,5.26028500E-01,2.67165600E-01
1.12112100E-01,4.08526000E+00,5.29326600E-01,2.68229100E-01
1.13113100E-01,4.05801000E+00,5.32635000E-01,2.69246500E-01
1.14114100E-01,4.03166600E+00,5.35953700E-01,2.70224600E-01
1.15115100E-01,4.00532300E+00,5.39282800E-01,2.71202700E-01
1.16116100E-01,3.97898000E+00,5.42622100E-01,2.72180800E-01
1.17117100E-01,3.95263700E+00,5.45971800E-01,2.73158900E-01
1.18118100E-01,3.92629400E+00,5.49331700E-01,2.74137000E-01
1.19119100E-01,3.89995100E+00,5.52702000E-01,2.75115200E-01
1.20120100E-01,3.87360700E+00,5.56082600E-01,2.76093300E-01
1.21121100E-01,3.84726400E+00,5.59473500E-01,2.77071400E-01
1.22122100E-01,3.82092100E+00,5.62874600E-01,2.78049500E-01
1.23123100E-01,3.79457800E+00,5.66286100E-01,2.79027600E-01
1.24124100E-01,3.76954900E+00,5.69707900E-01,2.79951800E-01
1.25125100E-01,3.74513000E+00,5.73140000E-01,2.80851000E-01
1.26126100E-01,3.72071200E+00,5.76582500E-01,2.81750200E-01
1.27127100E-01,3.69629300E+00,5.80035200E-01,2.82649400E-01
1.28128100E-01,3.67187400E+00,5.83498200E-01,2.83548700E-01
1.29129100E-01,3.64745500E+00,5.86971500E-01,2.84447900E-01
1.30130100E-01,3.62303600E+00,5.90455200E-01,2.85347100E-01
1.31131100E-01,3.59861800E+00,5.93949100E-01,2.86246300E-01
1.32132100E-01,3.57578300E+00,5.97453400E-01,2.87082300E-01
1.33133100E-01,3.55327700E+00,6.00968000E-01,2.87905200E-01
1.34134100E-01,3.53077100E+00,6.04492800E-01,2.88728200E-01
1.35135100E-01,3.50826600E+00,6.08028000E-01,2.89551100E-01
1.36136100E-01,3.48576000E+00,6.11573500E-01,2.90374000E-01
1.37137100E-01,3.46325400E+00,6.15129300E-01,2.91196900E-01
1.38138100E-01,3.44074800E+00,6.18695400E-01,2.92019800E-01
1.39139100E-01,3.41824300E+00,6.22271800E-01,2.92842700E-01
1.40140100E-01,3.39573700E+00,6.25858500E-01,2.93665600E-01
1.41141100E-01,3.37323100E+00,6.29455500E-01,2.94488600E-01
1.42142100E-01,3.35072500E+00,6.33062900E-01,2.95311500E-01
1.43143100E-01,3.32822000E+00,6.36680500E-01,2.96134400E-01
1.44144100E-01,3.30657900E+00,6.40308400E-01,2.96924800E-01
1.45145100E-01,3.28594200E+00,6.43946700E-01,2.97677500E-01
1.46146100E-01,3.26530400E+00,6.47595300E-01,2.98430300E-01
1.47147100E-01,3.24466700E+00,6.51254100E-01,2.99183000E-01
1.48148100E-01,3.22403000E+00,6.54923300E-01,2.99935700E-01
1.49149100E-01,3.20339300E+00,6.58602800E-01,3.00688500E-01
1.50150200E-01,3.18275600E+00,6.62292600E-01,3.01441200E-01
1.51151200E-01,3.16211800E+00,6.65992600E-01,3.02193900E-01
1.52152200E-01,3.14148100E+00,6.69703000E-01,3.02946700E-01
1.53153200E-01,3.12084400E+00,6.73423800E-01,3.03699400E-01
1.54154200E-01,3.10099600E+00,6.77154800E-01,3.04423300E-01
1.55155200E-01,3.08198200E+00,6.80896100E-01,3.05116900E-01
1.56156200E-01,3.06296700E+00,6.84647700E-01,3.05810500E-01
1.57157200E-01,3.04395300E+00,6.88409600E-01,3.06504100E-01
1.58158200E-01,3.02493800E+00,6.92181900E-01,3.07197700E-01
1.59159200E-01,3.00592400E+00,6.95964400E-01,3.07891300E-01
1.60160200E-01,2.98690900E+00,6.99757300E-01,3.08584800E-01
1.61161200E-01,2.96789500E+00,7.03560500E-01,3.09278400E-01
1.62162200E-01,2.94888000E+00,7.07373900E-01,3.09972000E-01
1.63163200E-01,2.92986600E+00,7.11197700E-01,3.10665600E-01
1.64164200E-01,2.91085100E+00,7.15031800E-01,3.11359200E-01
1.65165200E-01,2.89183700E+00,7.18876200E-01,3.12052700E-01
1.66166200E-01,2.87282200E+00,7.22730900E-01,3.12746300E-01
1.67167200E-01,2.85380700E+00,7.26595900E-01,3.13439900E-01
1.68168200E-01,2.83522300E+00,7.30471200E-01,3.14118700E-01
1.69169200E-01,2.81767500E+00,7.34356800E-01,3.14762100E-01
1.70170200E-01,2.80012700E+00,7.38252700E-01,3.15405400E-01
1.71171200E-01,2.78258000E+00,7.42159000E-01,3.16048700E-01
1.72172200E-01,2.76503200E+00,7.46075500E-01,3.16692100E-01
1.73173200E-01,2.74748400E+00,7.50002400E-01,3.17335400E-01
1.74174200E-01,2.72993600E+00,7.53939500E-01,3.17978700E-01
1.75175200E-01,2.71238800E+00,7.57887000E-01,3.18622000E-01
1.76176200E-01,2.69484000E+00,7.61844700E-01,3.19265400E-01
1.77177200E-01,2.67729200E+00,7.65812800E-01,3.19908700E-01
1.78178200E-01,2.65974400E+00,7.69791200E-01,3.20552000E-01
1.79179200E-01,2.64219700E+00,7.73779900E-01,3.21195400E-01
1.80180200E-01,2.62493800E+00,7.77778900E-01,3.21829100E-01
1.81181200E-01,2.60890000E+00,7.81788200E-01,3.22422600E-01
1.82182200E-01,2.59286300E+00,7.85807800E-01,3.23016000E-01
1.83183200E-01,2.57682500E+00,7.89837700E-01,3.23609400E-01
1.84184200E-01,2.56078800E+00,7.93877900E-01,3.24202800E-01
1.85185200E-01,2.54475000E+00,7.97928500E-01,3.24796300E-01
1.86186200E-01,2.52871300E+00,8.01989300E-01,3.25389700E-01
1.87187200E-01,2.51267500E+00,8.06060500E-01,3.25983100E-01
1.88188200E-01,2.49663700E+00,8.10141900E-01,3.26576600E-01
1.89189200E-01,2.48060000E+00,8.14233700E-01,3.27170000E-01
1.90190200E-01,2.46456200E+00,8.18335700E-01,3.27763400E-01
1.91191200E-01,2.44852500E+00,8.22448100E-01,3.28356800E-01
1.92192200E-01,2.43248700E+00,8.26570800E-01,3.28950300E-01
1.93193200E-01,2.41645000E+00,8.30703800E-01,3.29543700E-01
1.94194200E-01,2.40041200E+00,8.34847100E-01,3.30137100E-01
1.95195200E-01,2.38437400E+00,8.39000700E-01,3.30730600E-01
1.96196200E-01,2.36863000E+00,8.43164600E-01,3.31315000E-01
1.97197200E-01,2.35410600E+00,8.47338800E-01,3.31862200E-01
1.98198200E-01,2.33958200E+00,8.51523300E-01,3.32409500E-01
1.99199200E-01,2.32505800E+00,8.55718200E-01,3.32956700E-01
2.00200200E-01,2.31053400E+00,8.59923300E-01,3.33503900E-01
2.01201200E-01,2.29601000E+00,8.64138700E-01,3.34051100E-01
2.02202200E-01,2.28148600E+00,8.68364500E-01,3.34598300E-01
2.03203200E-01,2.26696200E+00,8.72600600E-01,3.35145600E-01
2.04204200E-01,2.25243800E+00,8.76846900E-01,3.35692800E-01
2.05205200E-01,2.23791400E+00,8.81103600E-01,3.36240000E-01
2.06206200E-01,2.22339000E+00,8.85370600E-01,3.36787200E-01
2.07207200E-01,2.20886500E+00,8.89647900E-01,3.37334400E-01
2.08208200E-01,2.19434100E+00,8.93935500E-01,3.37881700E-01
2.09209200E-01,2.17981700E+00,8.98233400E-01,3.38428900E-01
2.10210200E-01,2.16529300E+00,9.02541600E-01,3.38976100E-01
2.11211200E-01,2.15115700E+00,9.06860100E-01,3.39512300E-01
2.12212200E-01,2.13800600E+00,9.11188900E-01,3.40020300E-01
2.13213200E-01,2.12485400E+00,9.15528000E-01,3.40528400E-01
2.14214200E-01,2.11170300E+00,9.19877500E-01,3.41036400E-01
2.15215200E-01,2.09855200E+00,9.24237200E-01,3.41544500E-01
2.16216200E-01,2.08540100E+00,9.28607300E-01,3.42052500E-01
2.17217200E-01,2.07225000E+00,9.32987600E-01,3.42560600E-01
2.18218200E-01,2.05909900E+00,9.37378300E-01,3.43068600E-01
2.19219200E-01,2.04594800E+00,9.41779300E-01,3.43576700E-01
2.20220200E-01,2.03279700E+00,9.46190500E-01,3.44084700E-01
2.21221200E-01,2.01964500E+00,9.50612100E-01,3.44592800E-01
2.22222200E-01,2.00649400E+00,9.55044000E-01,3.45100800E-01
2.23223200E-01,1.99334300E+00,9.59486200E-01,3.45608900E-01
2.24224200E-01,1.98019200E+00,9.63938700E-01,3.46116900E-01
2.25225200E-01,1.96704100E+00,9.68401500E-01,3.46625000E-01
2.26226200E-01,1.95389000E+00,9.72874700E-01,3.47133000E-01
2.27227200E-01,1.94073900E+00,9.77358100E-01,3.47641100E-01
2.28228200E-01,1.92758800E+00,9.81851800E-01,3.48149100E-01
2.29229200E-01,1.91463300E+00,9.86355900E-01,3.48652200E-01
2.30230200E-01,1.90275000E+00,9.90870200E-01,3.49128100E-01
2.31231200E-01,1.89086700E+00,9.95394900E-01,3.49604000E-01
2.32232200E-01,1.87898400E+00,9.99929800E-01,3.50079900E-01
2.33233200E-01,1.86710100E+00,1.00447500E+00,3.50555800E-01
2.34234200E-01,1.85521800E+00,1.00903100E+00,3.51031700E-01
2.35235200E-01,1.84333500E+00,1.01359700E+00,3.51507600E-01
2.36236200E-01,1.83145200E+00,1.01817300E+00,3.51983500E-01
2.37237200E-01,1.81956900E+00,1.02275900E+00,3.52459400E-01
2.38238200E-01,1.80768600E+00,1.02735600E+00,3.52935300E-01
2.39239200E-01,1.79580300E+00,1.03196300E+00,3.53411200E-01
2.40240200E-01,1.78392000E+00,1.03658100E+00,3.53887100E-01
2.41241200E-01,1.77203700E+00,1.04120800E+00,3.54363000E-01
2.42242200E-01,1.76015400E+00,1.04584600E+00,3.54838900E-01
2.43243200E-01,1.74827100E+00,1.05049500E+00,3.55314800E-01
2.44244200E-01,1.73638800E+00,1.05515300E+00,3.55790700E-01
2.45245200E-01,1.72450500E+00,1.05982200E+00,3.56266600E-01
2.46246200E-01,1.71262200E+00,1.06450200E+00,3.56742500E-01
2.47247200E-01,1.70124300E+00,1.06919100E+00,3.57207000E-01
2.48248200E-01,1.69051800E+00,1.07389100E+00,3.57656800E-01
2.49249200E-01,1.67979300E+00,1.07860100E+00,3.58106600E-01
2.50250300E-01,1.66906800E+00,1.08332200E+00,3.58556400E-01
2.51251300E-01,1.65834300E+00,1.08805200E+00,3.59006100E-01
2.52252300E-01,1.64761900E+00,1.09279400E+00,3.59455900E-01
2.53253300E-01,1.63689400E+00,1.09754500E+00,3.59905700E-01
2.54254300E-01,1.62616900E+00,1.10230700E+00,3.60355400E-01
2.55255300E-01,1.61544400E+00,1.10707900E+00,3.60805200E-01
2.56256300E-01,1.60471900E+00,1.11186100E+00,3.61255000E-01
2.57257300E-01,1.59399400E+00,1.11665400E+00,3.61704800E-01
2.58258300E-01,1.58326900E+00,1.12145700E+00,3.62154500E-01
2.59259300E-01,1.57254400E+00,1.12627000E+00,3.62604300E-01
2.60260300E-01,1.56181900E+00,1.13109300E+00,3.63054100E-01
2.61261300E-01,1.55109500E+00,1.13592700E+00,3.63503900E-01
2.62262300E-01,1.54037000E+00,1.14077200E+00,3.63953600E-01
2.63263300E-01,1.52964500E+00,1.14562600E+00,3.64403400E-01
2.64264300E-01,1.51892000E+00,1.15049100E+00,3.64853200E-01
2.65265300E-01,1.50819500E+00,1.15536600E+00,3.65302900E-01
2.66266300E-01,1.49747000E+00,1.16025100E+00,3.65752700E-01
2.67267300E-01,1.48728200E+00,1.16514700E+00,3.66192500E-01
2.68268300E-01,1.47760700E+00,1.17005300E+00,3.66622700E-01
2.69269300E-01,1.46793200E+00,1.17496900E+00,3.67052900E-01
2.70270300E-01,1.45825800E+00,1.17989600E+00,3.67483100E-01
2.71271300E-01,1.44858300E+00,1.18483300E+00,3.67913300E-01
2.72272300E-01,1.43890800E+00,1.18978000E+00,3.68343400E-01
2.73273300E-01,1.42923300E+00,1.19473800E+00,3.68773600E-01
2.74274300E-01,1.41955800E+00,1.19970600E+00,3.69203800E-01
2.75275300E-01,1.40988300E+00,1.20468400E+00,3.69634000E-01
2.76276300E-01,1.40020900E+00,1.20967200E+00,3.70064200E-01
2.77277300E-01,1.39053400E+00,1.21467100E+00,3.70494400E-01
2.78278300E-01,1.38085900E+00,1.21968000E+00,3.70924600E-01
2.79279300E-01,1.37118400E+00,1.22469900E+00,3.71354800E-01
2.80280300E-01,1.36150900E+00,1.22972900E+00,3.71785000E-01
2.81281300E-01,1.35183400E+00,1.23476900E+00,3.72215200E-01
2.82282300E-01,1.34216000E+00,1.23982000E+00,3.72645400E-01
2.83283300E-01,1.33248500E+00,1.24488000E+00,3.73075600E-01
2.84284300E-01,1.32281000E+00,1.24995100E+00,3.73505800E-01
2.85285300E-01,1.31313500E+00,1.25503200E+00,3.73935900E-01
2.86286300E-01,1.30346000E+00,1.26012400E+00,3.74366100E-01
2.87287300E-01,1.29409300E+00,1.26522600E+00,3.74792100E-01
2.88288300E-01,1.28539800E+00,1.27033800E+00,3.75208800E-01
2.89289300E-01,1.27670400E+00,1.27546000E+00,3.75625400E-01
2.90290300E-01,1.26800900E+00,1.28059300E+00,3.76042100E-01
2.91291300E-01,1.25931500E+00,1.28573600E+00,3.76458700E-01
2.92292300E-01,1.25062000E+00,1.29089000E+00,3.76875400E-01
2.93293300E-01,1.24192500E+00,1.29605300E+00,3.77292100E-01
2.94294300E-01,1.23323100E+00,1.30122700E+00,3.77708700E-01
2.95295300E-01,1.22453600E+00,1.30641200E+00,3.78125400E-01
2.96296300E-01,1.21584200E+00,1.31160600E+00,3.78542100E-01
2.97297300E-01,1.20714700E+00,1.31681100E+00,3.78958700E-01
2.98298300E-01,1.19845300E+00,1.32202600E+00,3.79375400E-01
2.99299300E-01,1.18975800E+00,1.32725200E+00,3.79792100E-01
3.00300300E-01,1.18106400E+00,1.33248800E+00,3.80208700E-01
3.01301300E-01,1.17236900E+00,1.33773400E+00,3.80625400E-01
3.02302300E-01,1.16367500E+00,1.34299000E+00,3.81042100E-01
3.03303300E-01,1.15498000E+00,1.34825700E+00,3.81458700E-01
3.04304300E-01,1.14628600E+00,1.35353400E+00,3.81875400E-01
3.05305300E-01,1.13759100E+00,1.35882200E+00,3.82292100E-01
3.06306300E-01,1.12889600E+00,1.36411900E+00,3.82708700E-01
3.07307300E-01,1.12020200E+00,1.36942700E+00,3.83125400E-01
3.08308300E-01,1.11182700E+00,1.37474600E+00,3.83539100E-01
3.09309300E-01,1.10398100E+00,1.38007400E+00,3.83947800E-01
3.10310300E-01,1.09613400E+00,1.38541300E+00,3.84356500E-01
3.11311300E-01,1.08828800E+00,1.39076200E+00,3.84765300E-01
3.12312300E-01,1.08044200E+00,1.39612200E+00,3.85174000E-01
3.13313300E-01,1.07259600E+00,1.40149200E+00,3.85582700E-01
3.14314300E-01,1.06475000E+00,1.40687200E+00,3.85991500E-01
3.15315300E-01,1.05690400E+00,1.41226200E+00,3.86400200E-01
3.16316300E-01,1.04905700E+00,1.41766300E+00,3.86808900E-01
3.17317300E-01,1.04121100E+00,1.42307400E+00,3.87217700E-01
3.18318300E-01,1.03336500E+00,1.42849500E+00,3.87626400E-01
3.19319300E-01,1.02551900E+00,1.43392700E+00,3.88035100E-01
3.20320300E-01,1.01767300E+00,1.43936900E+00,3.88443900E-01
3.21321300E-01,1.00982600E+00,1.44482100E+00,3.88852600E-01
3.22322300E-01,1.00198000E+00,1.45028400E+00,3.89261300E-01
3.23323300E-01,9.94134000E-01,1.45575700E+00,3.89670100E-01
3.24324300E-01,9.86287800E-01,1.46124000E+00,3.90078800E-01
3.25325300E-01,9.78441600E-01,1.46673400E+00,3.90487500E-01
3.26326300E-01,9.70595400E-01,1.47223700E+00,3.90896300E-01
3.27327300E-01,9.62749200E-01,1.47775200E+00,3.91305000E-01
3.28328300E-01,9.54903000E-01,1.48327600E+00,3.91713700E-01
3.29329300E-01,9.47056800E-01,1.48881100E+00,3.92122400E-01
3.30330300E-01,9.39621000E-01,1.49435600E+00,3.92530000E-01
3.31331300E-01,9.32519800E-01,1.49991100E+00,3.92936600E-01
