s,A(s) (GHz),B(s) (GHz),C (normalized)
0.000,9.69285800,0.49384170,0.00000000
0.001,9.60415600,0.49837740,0.00478549
0.002,9.51658300,0.50293380,0.00948407
0.003,9.43052700,0.50751100,0.01406603
0.004,9.34507400,0.51210890,0.01860249
0.005,9.26126200,0.51672750,0.02301482
0.006,9.17859100,0.52136680,0.02734150
0.007,9.09656600,0.52602690,0.03162047
0.008,9.01607300,0.53070780,0.03578592
0.009,8.93660000,0.53540930,0.03987652
0.010,8.85762600,0.54013160,0.04393117
0.011,8.78034000,0.54487460,0.04786317
0.012,8.70401900,0.54963840,0.05172604
0.013,8.62807900,0.55442290,0.05556192
0.014,8.55349800,0.55922810,0.05930118
0.015,8.48015600,0.56405410,0.06295325
0.016,8.40725800,0.56890070,0.06657458
0.017,8.33499400,0.57376820,0.07015170
0.018,8.26441100,0.57865630,0.07361245
0.019,8.19434300,0.58356520,0.07703818
0.020,8.12434500,0.58849490,0.08045914
0.021,8.05606500,0.59344520,0.08376350
0.022,7.98890000,0.59841630,0.08699276
0.023,7.92206700,0.60340810,0.09020000
0.024,7.85526300,0.60842070,0.09340537
0.025,7.79066000,0.61345400,0.09646512
0.026,7.72672900,0.61850800,0.09948114
0.027,7.66295100,0.62358280,0.10248720
0.028,7.59917500,0.62867830,0.10549320
0.029,7.53775700,0.63379450,0.10834740
0.030,7.47719000,0.63893150,0.11114770
0.031,7.41676100,0.64408920,0.11393930
0.032,7.35633100,0.64926760,0.11673100
0.033,7.29713900,0.65446680,0.11944520
0.034,7.23931400,0.65968670,0.12207430
0.035,7.18170100,0.66492730,0.12469040
0.036,7.12408800,0.67018870,0.12730650
0.037,7.06649400,0.67547080,0.12992140
0.038,7.01112100,0.68077360,0.13240120
0.039,6.95653800,0.68609720,0.13483320
0.040,6.90195600,0.69144150,0.13726520
0.041,6.84737300,0.69680660,0.13969720
0.042,6.79284300,0.70219230,0.14212610
0.043,6.74029900,0.70759880,0.14443710
0.044,6.68839700,0.71302610,0.14671040
0.045,6.63649500,0.71847410,0.14898370
0.046,6.58459300,0.72394280,0.15125690
0.047,6.53269000,0.72943220,0.15353020
0.048,6.48255700,0.73494240,0.15570200
0.049,6.43426800,0.74047330,0.15776830
0.050,6.38598000,0.74602490,0.15983460
0.051,6.33769200,0.75159730,0.16190090
0.052,6.28940400,0.75719040,0.16396720
0.053,6.24121600,0.76280430,0.16602790
0.054,6.19454700,0.76843880,0.16800470
0.055,6.14893700,0.77409420,0.16992300
0.056,6.10333900,0.77977020,0.17184060
0.057,6.05774100,0.78546700,0.17375820
0.058,6.01214300,0.79118450,0.17567590
0.059,5.96660500,0.79692270,0.17759020
0.060,5.92227000,0.80268170,0.17944000
0.061,5.87931800,0.80846140,0.18121570
0.062,5.83666000,0.81426190,0.18297560
0.063,5.79400200,0.82008310,0.18473540
0.064,5.75134500,0.82592500,0.18649530
0.065,5.70868700,0.83178760,0.18825510
0.066,5.66626200,0.83767100,0.19000290
0.067,5.62508400,0.84357520,0.19168590
0.068,5.58476600,0.84950000,0.19332410
0.069,5.54478800,0.85544560,0.19494470
0.070,5.50480900,0.86141190,0.19656530
0.071,5.46483000,0.86739900,0.19818590
0.072,5.42485200,0.87340680,0.19980650
0.073,5.38500700,0.87943530,0.20142030
0.074,5.34584700,0.88548450,0.20300010
0.075,5.30841800,0.89155450,0.20449310
0.076,5.27121600,0.89764530,0.20597470
0.077,5.23431600,0.90375670,0.20744120
0.078,5.19741500,0.90988890,0.20890760
0.079,5.16051500,0.91604180,0.21037410
0.080,5.12361500,0.92221550,0.21184060
0.081,5.08688200,0.92840990,0.21329900
0.082,5.05073400,0.93462500,0.21472940
0.083,5.01587700,0.94086090,0.21609780
0.084,4.98134900,0.94711750,0.21745030
0.085,4.94717500,0.95339480,0.21878580
0.086,4.91311500,0.95969290,0.22011590
0.087,4.87905600,0.96601170,0.22144590
0.088,4.84499600,0.97235120,0.22277600
0.089,4.81093600,0.97871140,0.22410600
0.090,4.77715400,0.98509240,0.22542330
0.091,4.74394300,0.99149420,0.22671430
0.092,4.71171100,0.99791660,0.22796020
0.093,4.68001900,1.00436000,0.22918130
0.094,4.64842300,1.01082400,0.23039800
0.095,4.61725200,1.01730800,0.23159520
0.096,4.58608100,1.02381400,0.23279250
0.097,4.55491100,1.03034000,0.23398970
0.098,4.52374000,1.03688700,0.23518690
0.099,4.49256900,1.04345400,0.23638410
0.100,4.46197400,1.05004300,0.23755580
0.101,4.43174300,1.05665200,0.23871170
0.102,4.40209000,1.06328200,0.23984200
0.103,4.37310300,1.06993200,0.24094280
0.104,4.34411700,1.07660300,0.24204360
0.105,4.31529100,1.08329500,0.24313750
0.106,4.28669800,1.09000800,0.24422110
0.107,4.25810400,1.09674200,0.24530480
0.108,4.22951100,1.10349600,0.24638840
0.109,4.20091800,1.11027100,0.24747210
0.110,4.17243100,1.11706700,0.24855130
0.111,4.14450900,1.12388300,0.24960670
0.112,4.11675700,1.13072000,0.25065500
0.113,4.08934600,1.13757800,0.25168890
0.114,4.06287700,1.14445700,0.25268290
0.115,4.03640800,1.15135600,0.25367690
0.116,4.00993800,1.15827600,0.25467100
0.117,3.98371000,1.16521700,0.25565490
0.118,3.95766700,1.17217800,0.25663110
0.119,3.93162400,1.17916100,0.25760730
0.120,3.90558100,1.18616400,0.25858350
0.121,3.87953800,1.19318700,0.25955970
0.122,3.85366200,1.20023200,0.26052910
0.123,3.82837700,1.20729700,0.26147480
0.124,3.80316700,1.21438300,0.26241750
0.125,3.77795800,1.22149000,0.26336020
0.126,3.75374400,1.22861700,0.26426280
0.127,3.72975300,1.23576500,0.26515640
0.128,3.70576300,1.24293400,0.26604990
0.129,3.68177300,1.25012400,0.26694340
0.130,3.65791100,1.25733400,0.26783180
0.131,3.63428100,1.26456500,0.26871090
0.132,3.61065200,1.27181700,0.26959000
0.133,3.58702300,1.27909000,0.27046910
0.134,3.56339300,1.28638300,0.27134820
0.135,3.53984500,1.29369700,0.27222410
0.136,3.51683200,1.30103200,0.27307960
0.137,3.49391300,1.30838700,0.27393140
0.138,3.47099400,1.31576300,0.27478320
0.139,3.44808000,1.32316000,0.27563490
0.140,3.42633000,1.33057800,0.27644210
0.141,3.40462700,1.33801600,0.27724760
0.142,3.38292400,1.34547600,0.27805300
0.143,3.36122100,1.35295600,0.27885850
0.144,3.33951800,1.36045600,0.27966390
0.145,3.31818400,1.36797700,0.28045550
0.146,3.29694900,1.37552000,0.28124340
0.147,3.27571500,1.38308200,0.28203130
0.148,3.25448000,1.39066600,0.28281920
0.149,3.23324600,1.39827000,0.28360710
0.150,3.21251100,1.40589500,0.28437680
0.151,3.19218200,1.41354100,0.28513190
0.152,3.17185400,1.42120800,0.28588700
0.153,3.15152500,1.42889500,0.28664210
0.154,3.13119700,1.43660300,0.28739720
0.155,3.11140900,1.44433100,0.28813300
0.156,3.09223100,1.45208100,0.28884690
0.157,3.07305400,1.45985100,0.28956080
0.158,3.05387600,1.46764200,0.29027460
0.159,3.03469900,1.47545400,0.29098850
0.160,3.01552100,1.48328600,0.29170240
0.161,2.99639000,1.49113900,0.29241470
0.162,2.97753700,1.49901300,0.29311720
0.163,2.95868500,1.50690700,0.29381970
0.164,2.93983300,1.51482300,0.29452220
0.165,2.92098100,1.52275900,0.29522470
0.166,2.90223200,1.53071600,0.29592380
0.167,2.88401900,1.53869300,0.29660480
0.168,2.86580600,1.54669100,0.29728580
0.169,2.84759300,1.55471000,0.29796690
0.170,2.82938000,1.56275000,0.29864790
0.171,2.81116700,1.57081000,0.29932890
0.172,2.79310500,1.57889200,0.30000500
0.173,2.77592500,1.58699400,0.30065160
0.174,2.75874500,1.59511600,0.30129820
0.175,2.74156600,1.60326000,0.30194480
0.176,2.72438600,1.61142400,0.30259140
0.177,2.70720700,1.61960900,0.30323800
0.178,2.69002700,1.62781400,0.30388460
0.179,2.67284800,1.63604000,0.30453120
0.180,2.65593600,1.64428700,0.30516910
0.181,2.63909200,1.65255500,0.30580480
0.182,2.62224800,1.66084400,0.30644040
0.183,2.60540400,1.66915300,0.30707610
0.184,2.58867500,1.67748300,0.30770810
0.185,2.57248700,1.68583400,0.30832310
0.186,2.55630000,1.69420500,0.30893810
0.187,2.54011200,1.70259700,0.30955310
0.188,2.52392500,1.71101000,0.31016810
0.189,2.50773700,1.71944400,0.31078310
0.190,2.49155000,1.72789800,0.31139810
0.191,2.47536200,1.73637300,0.31201310
0.192,2.46006300,1.74486900,0.31260090
0.193,2.44483300,1.75338600,0.31318660
0.194,2.42960300,1.76192300,0.31377220
0.195,2.41437400,1.77048100,0.31435790
0.196,2.39914400,1.77906000,0.31494350
0.197,2.38391400,1.78766000,0.31552920
0.198,2.36868400,1.79628000,0.31611480
0.199,2.35345500,1.80492100,0.31670050
0.200,2.33835700,1.81358200,0.31728220
0.201,2.32341700,1.82226500,0.31785910
0.202,2.30847700,1.83096800,0.31843610
0.203,2.29353600,1.83969200,0.31901310
0.204,2.27876900,1.84843700,0.31958500
0.205,2.26436400,1.85720200,0.32014640
0.206,2.24995800,1.86598800,0.32070770
0.207,2.23555300,1.87479500,0.32126910
0.208,2.22114700,1.88362300,0.32183050
0.209,2.20674100,1.89247100,0.32239180
0.210,2.19233600,1.90134000,0.32295320
0.211,2.17793000,1.91023000,0.32351450
0.212,2.16352500,1.91914000,0.32407590
0.213,2.14972100,1.92807200,0.32462060
0.214,2.13613700,1.93702400,0.32515930
0.215,2.12255300,1.94599600,0.32569790
0.216,2.10896800,1.95499000,0.32623660
0.217,2.09538400,1.96400400,0.32677520
0.218,2.08179900,1.97303900,0.32731390
0.219,2.06821500,1.98209500,0.32785250
0.220,2.05463000,1.99117100,0.32839120
0.221,2.04104600,2.00026800,0.32892980
0.222,2.02752400,2.00938600,0.32946680
0.223,2.01425400,2.01852500,0.32999730
0.224,2.00098400,2.02768400,0.33052770
0.225,1.98771500,2.03686400,0.33105810
0.226,1.97497800,2.04606500,0.33157490
0.227,1.96238400,2.05528600,0.33208820
0.228,1.94978900,2.06452900,0.33260140
0.229,1.93719500,2.07379200,0.33311460
0.230,1.92460100,2.08307500,0.33362790
0.231,1.91200600,2.09238000,0.33414110
0.232,1.89941200,2.10170500,0.33465440
0.233,1.88681800,2.11105100,0.33516760
0.234,1.87422300,2.12041800,0.33568080
0.235,1.86162900,2.12980500,0.33619410
0.236,1.84966100,2.13921300,0.33669230
0.237,1.83795100,2.14864200,0.33718440
0.238,1.82624200,2.15809200,0.33767650
0.239,1.81453300,2.16756200,0.33816860
0.240,1.80282300,2.17705300,0.33866070
0.241,1.79111400,2.18656500,0.33915280
0.242,1.77940500,2.19609800,0.33964490
0.243,1.76769600,2.20565100,0.34013700
0.244,1.75598600,2.21522500,0.34062910
0.245,1.74427700,2.22482000,0.34112110
0.246,1.73256800,2.23443500,0.34161320
0.247,1.72103500,2.24407100,0.34210150
0.248,1.70956200,2.25372800,0.34258840
0.249,1.69814800,2.26340600,0.34307410
0.250,1.68707000,2.27310400,0.34355270
0.251,1.67603600,2.28282300,0.34403040
0.252,1.66500100,2.29256300,0.34450800
0.253,1.65396700,2.30232400,0.34498570
0.254,1.64293300,2.31210500,0.34546340
0.255,1.63189900,2.32190700,0.34594110
0.256,1.62086400,2.33173000,0.34641880
0.257,1.60983000,2.34157400,0.34689650
0.258,1.59879600,2.35143800,0.34737410
0.259,1.58776200,2.36132300,0.34785180
0.260,1.57672700,2.37122900,0.34832950
0.261,1.56613400,2.38115500,0.34879900
0.262,1.55576200,2.39110300,0.34926440
0.263,1.54538900,2.40107100,0.34972980
0.264,1.53501600,2.41105900,0.35019510
0.265,1.52464300,2.42106900,0.35066050
0.266,1.51427100,2.43109900,0.35112590
0.267,1.50389800,2.44115000,0.35159130
0.268,1.49352500,2.45122100,0.35205670
0.269,1.48315200,2.46131400,0.35252210
0.270,1.47278000,2.47142700,0.35298740
0.271,1.46240700,2.48156100,0.35345280
0.272,1.45203400,2.49171500,0.35391820
0.273,1.44181800,2.50189000,0.35438100
0.274,1.43171900,2.51208700,0.35484180
0.275,1.42191900,2.52230300,0.35529760
0.276,1.41221700,2.53254100,0.35575180
0.277,1.40251600,2.54279900,0.35620600
0.278,1.39281500,2.55307800,0.35666020
0.279,1.38311300,2.56337800,0.35711440
0.280,1.37341200,2.57369800,0.35756860
0.281,1.36371100,2.58403900,0.35802280
0.282,1.35400900,2.59440100,0.35847700
0.283,1.34430800,2.60478400,0.35893120
0.284,1.33460700,2.61518700,0.35938540
0.285,1.32490500,2.62561100,0.35983960
0.286,1.31520400,2.63605600,0.36029380
0.287,1.30568100,2.64652200,0.36074560
0.288,1.29661000,2.65700800,0.36119160
0.289,1.28753900,2.66751500,0.36163750
0.290,1.27846800,2.67804300,0.36208340
0.291,1.26939700,2.68859100,0.36252940
0.292,1.26032500,2.69916100,0.36297530
0.293,1.25125400,2.70975000,0.36342130
0.294,1.24218300,2.72036100,0.36386720
0.295,1.23311200,2.73099300,0.36431310
0.296,1.22404100,2.74164500,0.36475910
0.297,1.21497000,2.75231800,0.36520500
0.298,1.20589800,2.76301100,0.36565090
0.299,1.19682700,2.77372600,0.36609690
0.300,1.18782100,2.78446100,0.36654210
0.301,1.17913900,2.79521700,0.36698390
0.302,1.17065200,2.80599300,0.36742360
0.303,1.16216400,2.81679100,0.36786330
0.304,1.15367700,2.82760900,0.36830300
0.305,1.14518900,2.83844700,0.36874270
0.306,1.13670200,2.84930700,0.36918250
0.307,1.12821500,2.86018700,0.36962220
0.308,1.11972700,2.87108800,0.37006190
0.309,1.11124000,2.88201000,0.37050160
0.310,1.10275300,2.89295200,0.37094130
0.311,1.09426500,2.90391600,0.37138100
0.312,1.08577800,2.91489900,0.37182070
0.313,1.07729000,2.92590400,0.37226040
0.314,1.06880400,2.93692900,0.37270010
0.315,1.06077500,2.94797600,0.37313660
0.316,1.05279100,2.95904200,0.37357290
0.317,1.04480700,2.97013000,0.37400920
0.318,1.03682300,2.98123800,0.37444550
0.319,1.02883800,2.99236700,0.37488180
0.320,1.02085400,3.00351700,0.37531800
0.321,1.01287000,3.01468800,0.37575430
0.322,1.00488500,3.02587900,0.37619060
0.323,0.99690110,3.03709100,0.37662690
0.324,0.98891680,3.04832400,0.37706310
0.325,0.98093250,3.05957700,0.37749940
0.326,0.97294820,3.07085100,0.37793570
0.327,0.96496390,3.08214600,0.37837200
0.328,0.95718060,3.09346200,0.37880770
0.329,0.94974190,3.10479800,0.37924270
0.330,0.94233420,3.11615500,0.37967760
0.331,0.93492650,3.12753300,0.38011250
0.332,0.92751880,3.13893200,0.38054730
0.333,0.92011110,3.15035100,0.38098220
0.334,0.91270340,3.16179100,0.38141710
0.335,0.90529570,3.17325200,0.38185200
0.336,0.89788800,3.18473400,0.38228690
0.337,0.89048030,3.19623600,0.38272180
0.338,0.88307260,3.20775900,0.38315670
0.339,0.87566500,3.21930300,0.38359160
0.340,0.86825730,3.23086700,0.38402650
0.341,0.86084960,3.24245200,0.38446140
0.342,0.85351370,3.25405800,0.38489650
0.343,0.84673620,3.26568500,0.38533300
0.344,0.83995860,3.27733200,0.38576950
0.345,0.83318110,3.28900000,0.38620600
0.346,0.82640350,3.30068900,0.38664250
0.347,0.81962590,3.31239900,0.38707900
0.348,0.81284840,3.32412900,0.38751550
0.349,0.80607080,3.33588000,0.38795200
0.350,0.79929330,3.34765200,0.38838850
0.351,0.79251570,3.35944500,0.38882500
0.352,0.78573810,3.37125800,0.38926150
0.353,0.77896060,3.38309200,0.38969790
0.354,0.77218300,3.39494700,0.39013440
0.355,0.76548600,3.40682200,0.39057140
0.356,0.75893260,3.41871800,0.39100910
0.357,0.75262550,3.43063500,0.39144870
0.358,0.74632360,3.44257300,0.39188830
0.359,0.74002170,3.45453100,0.39232790
0.360,0.73371970,3.46651000,0.39276760
0.361,0.72741780,3.47851000,0.39320720
0.362,0.72111590,3.49053100,0.39364680
0.363,0.71481400,3.50257200,0.39408640
0.364,0.70851210,3.51463400,0.39452600
0.365,0.70221020,3.52671700,0.39496570
0.366,0.69590830,3.53882100,0.39540530
0.367,0.68960630,3.55094500,0.39584490
0.368,0.68330440,3.56309000,0.39628450
0.369,0.67700250,3.57525600,0.39672410
0.370,0.67090790,3.58744200,0.39716660
0.371,0.66500680,3.59964900,0.39761160
0.372,0.65910560,3.61187700,0.39805660
0.373,0.65320450,3.62412600,0.39850170
0.374,0.64730330,3.63639500,0.39894670
0.375,0.64140210,3.64868600,0.39939180
0.376,0.63550100,3.66099700,0.39983680
0.377,0.62959980,3.67332800,0.40028180
0.378,0.62369870,3.68568000,0.40072690
0.379,0.61779750,3.69805400,0.40117190
0.380,0.61189640,3.71044700,0.40161700
0.381,0.60599520,3.72286200,0.40206200
0.382,0.60017340,3.73529700,0.40250820
0.383,0.59448700,3.74775300,0.40295650
0.384,0.58892870,3.76023000,0.40340680
0.385,0.58348650,3.77272700,0.40385930
0.386,0.57804430,3.78524600,0.40431180
0.387,0.57260210,3.79778500,0.40476430
0.388,0.56716000,3.81034400,0.40521680
0.389,0.56171780,3.82292500,0.40566930
0.390,0.55627560,3.83552600,0.40612180
0.391,0.55083340,3.84814800,0.40657420
0.392,0.54539120,3.86079000,0.40702670
0.393,0.53994900,3.87345400,0.40747920
0.394,0.53450680,3.88613800,0.40793170
0.395,0.52906460,3.89884300,0.40838420
0.396,0.52362240,3.91156800,0.40883670
0.397,0.51842860,3.92431500,0.40929450
0.398,0.51340990,3.93708200,0.40975620
0.399,0.50839120,3.94986900,0.41021780
0.400,0.50337250,3.96267800,0.41067940
0.401,0.49835380,3.97550700,0.41114100
0.402,0.49333510,3.98835700,0.41160270
0.403,0.48831640,4.00122800,0.41206430
0.404,0.48329770,4.01411900,0.41252590
0.405,0.47827900,4.02703100,0.41298760
0.406,0.47326030,4.03996400,0.41344920
0.407,0.46824160,4.05291800,0.41391080
0.408,0.46326860,4.06589200,0.41437360
0.409,0.45842000,4.07888700,0.41483940
0.410,0.45368180,4.09190300,0.41530810
0.411,0.44901000,4.10494000,0.41577860
0.412,0.44440630,4.11799700,0.41625110
0.413,0.43980260,4.13107500,0.41672360
0.414,0.43519890,4.14417400,0.41719600
0.415,0.43059520,4.15729300,0.41766850
0.416,0.42599160,4.17043400,0.41814100
0.417,0.42138790,4.18359500,0.41861350
0.418,0.41678420,4.19677600,0.41908600
0.419,0.41218050,4.20997900,0.41955840
0.420,0.40757680,4.22320200,0.42003090
0.421,0.40297310,4.23644600,0.42050340
0.422,0.39836940,4.24971000,0.42097590
0.423,0.39401700,4.26299600,0.42145580
0.424,0.38976820,4.27630200,0.42193890
0.425,0.38551950,4.28962900,0.42242200
0.426,0.38127070,4.30297600,0.42290510
0.427,0.37702190,4.31634500,0.42338810
0.428,0.37277310,4.32973400,0.42387120
0.429,0.36852430,4.34314400,0.42435430
0.430,0.36427550,4.35657400,0.42483740
0.431,0.36002670,4.37002500,0.42532040
0.432,0.35577790,4.38349700,0.42580350
0.433,0.35156300,4.39699000,0.42628770
0.434,0.34745790,4.41050300,0.42677560
0.435,0.34344600,4.42403800,0.42726670
0.436,0.33943700,4.43759300,0.42775790
0.437,0.33554310,4.45116800,0.42825340
0.438,0.33164910,4.46476500,0.42874900
0.439,0.32775520,4.47838200,0.42924450
0.440,0.32386130,4.49202000,0.42974000
0.441,0.31996740,4.50567800,0.43023550
0.442,0.31607340,4.51935700,0.43073100
0.443,0.31217950,4.53305700,0.43122650
0.444,0.30828560,4.54677800,0.43172200
0.445,0.30439170,4.56052000,0.43221750
0.446,0.30049770,4.57428200,0.43271300
0.447,0.29661070,4.58806500,0.43320880
0.448,0.29308860,4.60186900,0.43371900
0.449,0.28959260,4.61569300,0.43423020
0.450,0.28609670,4.62953800,0.43474130
0.451,0.28260070,4.64340400,0.43525250
0.452,0.27910470,4.65729100,0.43576370
0.453,0.27560870,4.67119800,0.43627490
0.454,0.27211280,4.68512600,0.43678610
0.455,0.26861680,4.69907500,0.43729730
0.456,0.26512080,4.71304500,0.43780850
0.457,0.26167660,4.72703500,0.43832180
0.458,0.25834690,4.74104600,0.43883990
0.459,0.25508300,4.75507800,0.43936080
0.460,0.25181910,4.76913100,0.43988170
0.461,0.24865460,4.78320400,0.44040720
0.462,0.24550460,4.79729800,0.44093330
0.463,0.24235450,4.81141300,0.44145940
0.464,0.23920450,4.82554800,0.44198550
0.465,0.23605440,4.83970400,0.44251160
0.466,0.23290430,4.85388100,0.44303770
0.467,0.22975430,4.86807900,0.44356390
0.468,0.22660420,4.88229700,0.44409000
0.469,0.22345410,4.89653600,0.44461610
0.470,0.22030410,4.91079600,0.44514220
0.471,0.21736890,4.92507700,0.44567890
0.472,0.21453120,4.93937800,0.44622030
0.473,0.21169360,4.95370000,0.44676170
0.474,0.20885590,4.96804300,0.44730320
0.475,0.20601820,4.98240700,0.44784460
0.476,0.20318060,4.99679100,0.44838600
0.477,0.20034290,5.01119600,0.44892750
0.478,0.19750530,5.02562200,0.44946890
0.479,0.19466760,5.04006800,0.45001030
0.480,0.19192190,5.05453500,0.45055640
0.481,0.18928040,5.06902300,0.45110770
0.482,0.18664240,5.08353200,0.45165930
0.483,0.18401610,5.09806100,0.45221150
0.484,0.18147430,5.11261100,0.45276840
0.485,0.17893240,5.12718200,0.45332520
0.486,0.17639060,5.14177400,0.45388210
0.487,0.17384870,5.15638600,0.45443900
0.488,0.17130690,5.17101900,0.45499590
0.489,0.16876500,5.18567300,0.45555280
0.490,0.16622320,5.20034800,0.45610970
0.491,0.16368130,5.21504300,0.45666650
0.492,0.16113950,5.22975900,0.45722340
0.493,0.15880150,5.24449600,0.45779230
0.494,0.15654370,5.25925300,0.45836600
0.495,0.15428580,5.27403100,0.45893960
0.496,0.15202800,5.28883000,0.45951320
0.497,0.14977020,5.30365000,0.46008680
0.498,0.14751230,5.31849100,0.46066050
0.499,0.14525450,5.33335200,0.46123410
0.501,0.14299670,5.34823400,0.46180770
0.502,0.14079580,5.36313600,0.46238480
0.503,0.13869970,5.37806000,0.46296820
0.504,0.13662890,5.39300400,0.46355310
0.505,0.13455800,5.40796800,0.46413800
0.506,0.13254310,5.42295400,0.46472670
0.507,0.13055920,5.43796000,0.46531740
0.508,0.12857520,5.45298700,0.46590820
0.509,0.12659130,5.46803500,0.46649890
0.510,0.12460730,5.48310400,0.46708960
0.511,0.12262330,5.49819300,0.46768030
